SpectraSuite Data File
++++++++++++++++++++++++++++++++++++
Date: Mon Sep 10 19:21:26 GMT-03:00 2018
User: Diogo
Dark Spectrum Present: Yes
Reference Spectrum Present: Yes
Number of Sampled Component Spectra: 1
Spectrometers: USB4H02279
Integration Time (usec): 789998 (USB4H02279)
Spectra Averaged: 5 (USB4H02279)
Boxcar Smoothing: 5 (USB4H02279)
Correct for Electrical Dark: No (USB4H02279)
Strobe/Lamp Enabled: No (USB4H02279)
Correct for Detector Non-linearity: No (USB4H02279)
Correct for Stray Light: No (USB4H02279)
Number of Pixels in Processed Spectrum: 3648
>>>>>Begin Processed Spectral Data<<<<<
177,80	280,000
178,02	280,000
178,23	280,000
178,45	149,265
178,67	51,852
178,89	49,682
179,11	95,455
179,33	70,400
179,55	93,011
179,76	82,927
179,98	-792,308
180,20	197,260
180,42	85,263
180,64	135,829
180,86	133,981
181,07	114,449
181,29	47,977
181,51	34,434
181,73	18,466
181,95	15,282
182,17	-7,074
182,39	-34,672
182,60	-73,446
182,82	-71,186
183,04	-198,462
183,26	-172,727
183,48	-65,263
183,70	-45,455
183,91	18,705
184,13	29,775
184,35	-30,526
184,57	-143,182
184,79	-59,358
185,01	-18,015
185,22	-54,945
185,44	-93,091
185,66	-86,219
185,88	-96,053
186,10	-73,518
186,31	-65,700
186,53	-9,645
186,75	30,275
186,97	56,507
187,19	83,819
187,41	89,922
187,62	146,269
187,84	175,385
188,06	170,320
188,28	116,535
188,50	148,649
188,71	118,462
188,93	53,617
189,15	45,455
189,37	9,845
189,59	-7,813
189,81	30,867
190,02	24,936
190,24	16,705
190,46	6,783
190,68	1,462
190,90	-15,625
191,11	-42,246
191,33	-12,698
191,55	-362,162
191,77	-152,336
191,99	-114,844
192,20	-102,679
192,42	-174,286
192,64	-115,385
192,86	-50,000
193,07	-6,780
193,29	54,585
193,51	53,674
193,73	23,214
193,95	53,488
194,16	56,383
194,38	56,619
194,60	58,134
194,82	52,720
195,04	70,000
195,25	133,831
195,47	200,000
195,69	169,027
195,91	-739,130
196,13	-309,836
196,34	2371,429
196,56	777,778
196,78	134,091
197,00	33,600
197,21	154,762
197,43	300,000
197,65	51,111
197,87	2,667
198,08	19,266
198,30	28,625
198,52	11,070
198,74	36,047
198,96	22,348
199,17	38,956
199,39	64,057
199,61	38,176
199,83	58,065
200,04	81,029
200,26	88,547
200,48	84,274
200,70	109,415
200,91	89,597
201,13	93,474
201,35	130,958
201,57	139,500
201,78	175,768
202,00	188,785
202,22	160,526
202,44	127,737
202,65	143,333
202,87	92,609
203,09	80,788
203,31	120,000
203,52	131,984
203,74	98,431
203,96	109,657
204,18	132,069
204,39	106,828
204,61	72,711
204,83	94,043
205,05	121,893
205,26	118,844
205,48	125,704
205,70	98,802
205,92	103,560
206,13	69,667
206,35	43,038
206,57	29,114
206,79	-57,143
207,00	-5,579
207,22	64,923
207,44	43,048
207,65	31,757
207,87	23,965
208,09	19,767
208,31	8,090
208,52	20,777
208,74	0,000
208,96	-16,296
209,18	-3,448
209,39	10,811
209,61	-21,394
209,83	-61,794
210,04	-26,361
210,26	-23,364
210,48	20,539
210,70	54,455
210,91	51,100
211,13	52,793
211,35	80,365
211,56	70,904
211,78	63,859
212,00	58,402
212,22	91,932
212,43	88,389
212,65	135,789
212,87	172,785
213,08	108,299
213,30	126,977
213,52	153,333
213,74	98,370
213,95	287,640
214,17	293,694
214,39	329,310
214,60	98,765
214,82	117,708
215,04	83,523
215,25	67,677
215,47	26,446
215,69	17,474
215,90	24,352
216,12	5,514
216,34	-8,969
216,56	-12,015
216,77	-11,594
216,99	25,461
217,21	34,662
217,42	41,942
217,64	45,063
217,86	42,429
218,07	66,066
218,29	36,779
218,51	50,000
218,72	59,279
218,94	39,458
219,16	37,077
219,37	26,477
219,59	19,753
219,81	11,286
220,02	12,989
220,24	16,818
220,46	5,916
220,67	21,474
220,89	12,952
221,11	0,905
221,32	8,304
221,54	7,175
221,76	6,469
221,97	6,477
222,19	6,650
222,41	6,667
222,62	8,000
222,84	4,417
223,06	1,716
223,27	0,481
223,49	1,896
223,71	-1,500
223,92	-7,855
224,14	-6,144
224,36	-1,280
224,57	-4,427
224,79	-1,741
225,01	-1,698
225,22	0,066
225,44	0,132
225,66	-0,707
225,87	-1,149
226,09	-0,417
226,31	-0,666
226,52	1,604
226,74	0,225
226,96	1,599
227,17	1,776
227,39	1,917
227,60	1,426
227,82	2,427
228,04	2,613
228,25	2,882
228,47	2,951
228,69	4,262
228,90	2,963
229,12	2,097
229,34	1,414
229,55	0,467
229,77	0,750
229,98	0,860
230,20	0,892
230,42	1,174
230,63	0,582
230,85	0,810
231,07	0,802
231,28	0,366
231,50	0,479
231,71	0,595
231,93	1,183
232,15	1,176
232,36	1,571
232,58	1,817
232,79	1,806
233,01	1,693
233,23	1,618
233,44	1,534
233,66	1,947
233,88	2,043
234,09	1,634
234,31	1,467
234,52	1,416
234,74	1,120
234,96	0,764
235,17	1,351
235,39	1,769
235,60	2,711
235,82	2,358
236,04	2,684
236,25	3,093
236,47	3,180
236,68	3,139
236,90	3,111
237,12	3,366
237,33	3,856
237,55	3,480
237,76	3,471
237,98	2,937
238,20	3,218
238,41	2,854
238,63	2,602
238,84	2,723
239,06	3,008
239,27	2,900
239,49	2,889
239,71	2,707
239,92	2,906
240,14	2,923
240,35	2,822
240,57	2,985
240,79	2,984
241,00	2,862
241,22	3,716
241,43	3,397
241,65	3,760
241,86	3,488
242,08	3,275
242,30	2,976
242,51	1,394
242,73	1,404
242,94	1,397
243,16	1,674
243,37	1,777
243,59	1,155
243,81	1,472
244,02	1,230
244,24	1,762
244,45	2,178
244,67	2,572
244,88	4,042
245,10	4,483
245,31	4,433
245,53	4,583
245,75	5,046
245,96	5,250
246,18	5,348
246,39	5,681
246,61	5,508
246,82	5,748
247,04	5,780
247,25	5,753
247,47	5,762
247,69	5,722
247,90	5,402
248,12	5,228
248,33	5,428
248,55	5,581
248,76	5,576
248,98	6,074
249,19	5,980
249,41	6,192
249,62	6,496
249,84	6,576
250,05	7,126
250,27	7,890
250,49	7,898
250,70	8,239
250,92	8,145
251,13	8,171
251,35	8,081
251,56	8,132
251,78	8,032
251,99	8,270
252,21	7,863
252,42	7,664
252,64	6,951
252,85	6,953
253,07	6,586
253,28	6,627
253,50	6,621
253,71	6,583
253,93	6,259
254,14	6,245
254,36	5,646
254,57	5,859
254,79	5,617
255,00	5,809
255,22	5,868
255,44	5,519
255,65	5,538
255,87	5,524
256,08	5,536
256,30	5,864
256,51	5,885
256,73	6,159
256,94	6,168
257,16	6,282
257,37	6,276
257,59	6,472
257,80	6,786
258,02	6,578
258,23	6,591
258,45	6,452
258,66	6,122
258,88	5,971
259,09	5,974
259,31	5,915
259,52	5,961
259,73	6,354
259,95	6,282
260,16	6,333
260,38	6,736
260,59	6,818
260,81	6,775
261,02	7,249
261,24	7,281
261,45	7,343
261,67	7,664
261,88	7,880
262,10	7,597
262,31	7,382
262,53	7,166
262,74	7,185
262,96	7,098
263,17	7,227
263,39	6,899
263,60	7,085
263,82	6,944
264,03	6,753
264,25	6,447
264,46	6,639
264,67	6,629
264,89	7,004
265,10	7,073
265,32	7,036
265,53	7,116
265,75	7,542
265,96	7,405
266,18	7,410
266,39	7,565
266,61	7,925
266,82	7,915
267,03	8,239
267,25	8,262
267,46	7,907
267,68	8,131
267,89	7,958
268,11	7,788
268,32	7,873
268,54	7,959
268,75	7,940
268,97	8,037
269,18	7,902
269,39	7,723
269,61	7,638
269,82	7,939
270,04	8,296
270,25	8,636
270,47	8,829
270,68	8,876
270,89	8,980
271,11	8,907
271,32	8,695
271,54	8,886
271,75	8,927
271,97	9,073
272,18	8,951
272,39	8,357
272,61	8,205
272,82	8,086
273,04	8,150
273,25	8,066
273,47	8,147
273,68	7,984
273,89	7,919
274,11	7,658
274,32	7,555
274,54	7,614
274,75	7,667
274,97	7,675
275,18	7,579
275,39	7,518
275,61	7,815
275,82	7,853
276,04	7,901
276,25	8,300
276,46	8,500
276,68	8,577
276,89	8,427
277,11	8,544
277,32	8,329
277,53	8,133
277,75	8,290
277,96	7,993
278,18	8,251
278,39	8,655
278,60	8,332
278,82	8,652
279,03	8,265
279,25	8,349
279,46	8,104
279,67	8,020
279,89	8,069
280,10	7,999
280,32	7,822
280,53	7,243
280,74	6,788
280,96	6,665
281,17	6,293
281,38	6,489
281,60	6,462
281,81	6,450
282,03	6,749
282,24	6,498
282,45	6,230
282,67	6,717
282,88	6,923
283,09	6,724
283,31	6,804
283,52	6,702
283,74	6,768
283,95	6,743
284,16	6,734
284,38	6,452
284,59	6,537
284,80	6,581
285,02	6,095
285,23	5,877
285,45	6,287
285,66	6,117
285,87	6,367
286,09	5,883
286,30	5,997
286,51	6,361
286,73	6,326
286,94	6,614
287,15	6,620
287,37	6,576
287,58	6,991
287,79	6,693
288,01	6,641
288,22	6,539
288,43	6,930
288,65	6,674
288,86	6,731
289,08	6,837
289,29	6,874
289,50	6,622
289,72	7,060
289,93	6,828
290,14	6,796
290,36	6,967
290,57	6,996
290,78	6,794
291,00	6,899
291,21	6,748
291,42	6,751
291,64	6,539
291,85	7,103
292,06	6,867
292,28	6,795
292,49	6,906
292,70	6,947
292,92	6,901
293,13	7,062
293,34	7,155
293,55	7,296
293,77	7,391
293,98	7,439
294,19	7,257
294,41	7,353
294,62	7,582
294,83	7,638
295,05	7,339
295,26	7,483
295,47	7,481
295,69	7,529
295,90	7,251
296,11	7,121
296,33	7,129
296,54	7,045
296,75	6,914
296,96	6,757
297,18	7,006
297,39	7,361
297,60	7,421
297,82	7,401
298,03	7,439
298,24	7,677
298,46	7,588
298,67	7,662
298,88	7,581
299,09	7,492
299,31	7,452
299,52	7,140
299,73	6,996
299,95	6,759
300,16	6,664
300,37	7,018
300,58	6,770
300,80	7,145
301,01	7,177
301,22	7,298
301,44	7,449
301,65	7,582
301,86	7,440
302,07	7,434
302,29	7,706
302,50	7,793
302,71	7,348
302,93	7,274
303,14	7,199
303,35	7,291
303,56	7,131
303,78	6,985
303,99	6,765
304,20	7,074
304,41	6,867
304,63	6,566
304,84	6,248
305,05	6,424
305,27	6,447
305,48	6,340
305,69	6,052
305,90	6,159
306,12	6,103
306,33	6,053
306,54	5,721
306,75	5,692
306,97	5,473
307,18	5,622
307,39	5,528
307,60	5,787
307,82	5,812
308,03	5,658
308,24	5,493
308,45	5,423
308,67	5,337
308,88	5,376
309,09	5,602
309,30	5,875
309,51	6,013
309,73	5,867
309,94	5,556
310,15	5,527
310,36	5,771
310,58	5,698
310,79	5,488
311,00	5,786
311,21	5,884
311,43	5,689
311,64	5,545
311,85	5,640
312,06	5,780
312,28	6,158
312,49	5,971
312,70	5,789
312,91	5,930
313,12	6,125
313,34	5,814
313,55	5,765
313,76	5,780
313,97	5,680
314,18	5,506
314,40	5,483
314,61	5,223
314,82	5,059
315,03	4,971
315,25	4,908
315,46	4,896
315,67	5,013
315,88	4,880
316,09	4,710
316,31	4,891
316,52	4,875
316,73	4,333
316,94	4,562
317,15	4,936
317,37	5,071
317,58	4,953
317,79	5,095
318,00	5,282
318,21	5,754
318,43	5,717
318,64	5,556
318,85	5,412
319,06	5,714
319,27	5,566
319,49	5,616
319,70	5,746
319,91	5,845
320,12	5,691
320,33	5,767
320,54	5,170
320,76	5,153
320,97	5,200
321,18	5,280
321,39	5,117
321,60	5,240
321,81	4,971
322,03	4,868
322,24	4,809
322,45	4,812
322,66	4,590
322,87	4,728
323,09	4,710
323,30	4,635
323,51	4,621
323,72	4,747
323,93	4,261
324,14	4,139
324,36	3,864
324,57	3,752
324,78	3,749
324,99	3,692
325,20	3,599
325,41	3,917
325,62	3,837
325,84	3,861
326,05	3,509
326,26	3,722
326,47	3,735
326,68	4,238
326,89	4,386
327,10	4,810
327,32	4,538
327,53	4,711
327,74	4,461
327,95	4,556
328,16	4,305
328,37	4,638
328,58	4,496
328,80	4,220
329,01	3,643
329,22	3,466
329,43	3,207
329,64	3,344
329,85	3,402
330,06	3,352
330,28	3,258
330,49	3,409
330,70	3,061
330,91	3,158
331,12	3,307
331,33	3,456
331,54	3,414
331,75	3,355
331,97	3,227
332,18	3,084
332,39	3,554
332,60	3,722
332,81	3,648
333,02	3,715
333,23	3,684
333,44	3,711
333,65	3,776
333,87	3,781
334,08	3,604
334,29	3,650
334,50	3,456
334,71	2,948
334,92	2,755
335,13	2,784
335,34	3,172
335,55	3,284
335,77	3,327
335,98	3,415
336,19	3,481
336,40	3,424
336,61	3,724
336,82	3,840
337,03	3,841
337,24	3,888
337,45	3,783
337,66	3,529
337,87	3,592
338,09	3,683
338,30	3,487
338,51	3,513
338,72	3,738
338,93	3,662
339,14	3,458
339,35	3,943
339,56	3,882
339,77	4,127
339,98	4,158
340,19	3,920
340,40	3,739
340,62	3,837
340,83	3,723
341,04	3,579
341,25	3,436
341,46	3,656
341,67	3,374
341,88	3,314
342,09	3,133
342,30	3,195
342,51	3,193
342,72	3,214
342,93	3,027
343,14	3,713
343,35	3,549
343,56	3,723
343,78	3,712
343,99	3,725
344,20	3,831
344,41	3,837
344,62	3,678
344,83	3,630
345,04	3,599
345,25	3,693
345,46	3,129
345,67	3,240
345,88	3,097
346,09	3,111
346,30	3,146
346,51	3,397
346,72	4,007
346,93	4,054
347,14	3,971
347,35	3,935
347,56	3,945
347,77	3,907
347,98	3,883
348,19	3,871
348,40	4,047
348,61	3,809
348,83	3,597
349,04	2,878
349,25	2,793
349,46	2,899
349,67	3,160
349,88	3,371
350,09	3,340
350,30	3,562
350,51	3,802
350,72	3,473
350,93	3,371
351,14	3,382
351,35	3,338
351,56	3,168
351,77	3,283
351,98	3,329
352,19	3,077
352,40	3,050
352,61	2,710
352,82	2,605
353,03	2,898
353,24	2,947
353,45	2,792
353,66	3,261
353,87	3,520
354,08	3,326
354,29	3,025
354,50	2,959
354,71	3,063
354,92	3,032
355,13	2,709
355,34	2,715
355,55	2,868
355,76	2,921
355,97	2,513
356,18	2,344
356,39	2,566
356,60	2,579
356,81	2,484
357,02	2,280
357,23	2,580
357,44	2,519
357,65	2,223
357,86	2,100
358,07	1,977
358,28	2,310
358,49	2,460
358,70	2,304
358,91	2,312
359,12	2,564
359,32	2,647
359,53	2,313
359,74	2,438
359,95	2,804
360,16	2,743
360,37	2,734
360,58	2,526
360,79	2,996
361,00	2,900
361,21	2,903
361,42	2,857
361,63	3,024
361,84	3,519
362,05	3,617
362,26	3,307
362,47	3,386
362,68	3,566
362,89	3,862
363,10	3,406
363,31	3,480
363,52	3,633
363,73	3,913
363,94	3,732
364,14	3,580
364,35	3,429
364,56	3,402
364,77	3,365
364,98	3,813
365,19	3,866
365,40	3,744
365,61	3,738
365,82	3,650
366,03	3,295
366,24	3,321
366,45	3,245
366,66	3,417
366,87	3,428
367,08	3,474
367,29	3,203
367,49	2,853
367,70	3,187
367,91	3,286
368,12	3,371
368,33	3,490
368,54	3,397
368,75	3,314
368,96	3,287
369,17	3,606
369,38	3,651
369,59	3,609
369,80	4,126
370,00	3,950
370,21	3,803
370,42	3,668
370,63	3,951
370,84	4,194
371,05	4,032
371,26	4,298
371,47	3,995
371,68	3,909
371,89	3,872
372,09	3,570
372,30	3,623
372,51	4,017
372,72	4,040
372,93	3,813
373,14	3,865
373,35	3,976
373,56	3,775
373,77	3,767
373,98	3,887
374,18	3,862
374,39	3,576
374,60	3,529
374,81	3,249
375,02	3,264
375,23	3,300
375,44	3,333
375,65	3,414
375,85	3,411
376,06	3,812
376,27	3,944
376,48	3,841
376,69	3,817
376,90	3,936
377,11	4,137
377,32	4,251
377,52	4,159
377,73	4,006
377,94	4,470
378,15	4,661
378,36	4,819
378,57	4,659
378,78	4,988
378,98	5,730
379,19	5,847
379,40	5,839
379,61	5,962
379,82	5,966
380,03	6,069
380,24	5,743
380,44	5,350
380,65	5,020
380,86	5,228
381,07	4,982
381,28	4,431
381,49	4,332
381,70	4,196
381,90	4,060
382,11	4,117
382,32	4,110
382,53	4,229
382,74	4,436
382,95	4,943
383,15	4,844
383,36	5,221
383,57	4,952
383,78	4,961
383,99	5,240
384,20	5,210
384,40	5,490
384,61	5,613
384,82	5,488
385,03	5,421
385,24	4,836
385,44	5,059
385,65	4,636
385,86	5,056
386,07	4,889
386,28	5,068
386,49	5,364
386,69	5,242
386,90	5,524
387,11	5,629
387,32	5,857
387,53	6,074
387,73	5,711
387,94	6,377
388,15	6,634
388,36	7,154
388,57	6,988
388,77	7,273
388,98	7,152
389,19	7,369
389,40	7,256
389,61	7,508
389,81	7,365
390,02	7,753
390,23	7,551
390,44	7,506
390,65	7,204
390,85	7,179
391,06	6,882
391,27	7,115
391,48	6,667
391,69	7,075
391,89	7,009
392,10	7,310
392,31	7,233
392,52	7,347
392,72	7,143
392,93	7,384
393,14	7,697
393,35	7,680
393,56	7,774
393,76	8,509
393,97	8,903
394,18	8,808
394,39	8,732
394,59	8,856
394,80	8,864
395,01	8,884
395,22	8,954
395,42	9,070
395,63	9,562
395,84	9,538
396,05	8,716
396,26	8,674
396,46	8,846
396,67	9,410
396,88	9,343
397,09	9,137
397,29	9,528
397,50	9,701
397,71	9,491
397,92	9,382
398,12	9,833
398,33	10,472
398,54	10,349
398,75	10,519
398,95	10,278
399,16	10,821
399,37	11,325
399,58	11,364
399,78	11,439
399,99	12,167
400,20	12,594
400,40	12,536
400,61	12,472
400,82	12,632
401,03	12,726
401,23	13,243
401,44	13,483
401,65	13,273
401,86	13,312
402,06	13,443
402,27	13,277
402,48	13,570
402,68	14,354
402,89	14,494
403,10	14,502
403,31	15,024
403,51	15,102
403,72	15,162
403,93	15,363
404,13	16,057
404,34	16,797
404,55	16,971
404,76	16,651
404,96	16,256
405,17	16,718
405,38	17,496
405,58	17,559
405,79	17,693
406,00	17,718
406,20	18,147
406,41	17,898
406,62	17,422
406,83	17,470
407,03	17,755
407,24	17,791
407,45	17,508
407,65	17,037
407,86	16,923
408,07	16,797
408,27	17,266
408,48	17,387
408,69	18,262
408,89	18,399
409,10	18,427
409,31	18,526
409,52	18,841
409,72	19,412
409,93	19,734
410,14	20,173
410,34	20,250
410,55	20,376
410,76	20,511
410,96	20,092
411,17	20,034
411,38	20,179
411,58	20,389
411,79	20,384
412,00	20,371
412,20	20,170
412,41	20,260
412,62	20,526
412,82	20,164
413,03	19,942
413,24	19,834
413,44	19,859
413,65	19,687
413,85	19,525
414,06	19,370
414,27	18,810
414,47	18,715
414,68	18,054
414,89	17,971
415,09	18,109
415,30	18,643
415,51	18,589
415,71	18,916
415,92	19,013
416,13	18,796
416,33	18,855
416,54	19,188
416,74	19,204
416,95	19,349
417,16	19,441
417,36	19,260
417,57	18,689
417,78	19,231
417,98	19,176
418,19	19,077
418,40	19,179
418,60	19,036
418,81	18,694
419,01	19,162
419,22	19,082
419,43	18,720
419,63	19,099
419,84	19,275
420,04	18,998
420,25	19,051
420,46	19,280
420,66	19,366
420,87	19,761
421,08	20,182
421,28	19,949
421,49	20,105
421,69	20,909
421,90	20,495
422,11	20,220
422,31	19,805
422,52	19,834
422,72	19,596
422,93	19,550
423,14	19,487
423,34	19,451
423,55	19,567
423,75	19,570
423,96	18,858
424,17	19,267
424,37	19,495
424,58	19,634
424,78	19,494
424,99	19,775
425,19	19,560
425,40	19,626
425,61	19,711
425,81	19,606
426,02	19,697
426,22	19,753
426,43	19,774
426,64	19,533
426,84	19,947
427,05	20,024
427,25	19,931
427,46	20,181
427,66	20,088
427,87	20,190
428,07	20,537
428,28	20,843
428,49	21,381
428,69	21,586
428,90	21,981
429,10	21,709
429,31	21,542
429,51	21,513
429,72	21,710
429,93	21,660
430,13	21,854
430,34	21,593
430,54	21,496
430,75	20,992
430,95	20,647
431,16	20,550
431,36	20,424
431,57	20,160
431,77	20,405
431,98	20,228
432,19	20,214
432,39	20,122
432,60	20,233
432,80	20,165
433,01	20,534
433,21	20,438
433,42	20,856
433,62	21,170
433,83	21,884
434,03	22,564
434,24	23,556
434,44	24,601
434,65	25,404
434,85	26,420
435,06	27,399
435,26	27,986
435,47	28,757
435,68	28,853
435,88	29,162
436,09	29,062
436,29	28,731
436,50	28,169
436,70	27,305
436,91	26,532
437,11	25,710
437,32	25,076
437,52	24,738
437,73	24,185
437,93	24,007
438,14	23,902
438,34	23,959
438,55	23,746
438,75	23,782
438,96	23,942
439,16	23,991
439,37	24,049
439,57	24,054
439,78	23,964
439,98	24,233
440,19	24,304
440,39	24,139
440,60	24,263
440,80	24,298
441,01	24,312
441,21	24,477
441,42	24,636
441,62	24,851
441,82	24,774
442,03	24,884
442,23	25,016
442,44	24,975
442,64	25,020
442,85	24,885
443,05	25,040
443,26	25,200
443,46	25,108
443,67	25,175
443,87	25,100
444,08	25,288
444,28	25,195
444,49	25,113
444,69	25,217
444,90	25,398
445,10	25,533
445,30	25,435
445,51	25,318
445,71	25,346
445,92	25,175
446,12	25,205
446,33	25,014
446,53	25,043
446,74	24,891
446,94	24,820
447,15	24,611
447,35	24,520
447,55	24,662
447,76	24,726
447,96	24,776
448,17	24,792
448,37	24,861
448,58	24,957
448,78	24,973
448,98	25,209
449,19	25,242
449,39	25,307
449,60	25,286
449,80	25,309
450,01	25,295
450,21	25,358
450,41	25,419
450,62	25,511
450,82	25,608
451,03	25,691
451,23	25,568
451,44	25,714
451,64	25,800
451,84	25,908
452,05	25,972
452,25	26,114
452,46	26,119
452,66	26,340
452,86	26,223
453,07	26,306
453,27	26,325
453,48	26,389
453,68	26,447
453,89	26,498
454,09	26,606
454,29	26,684
454,50	26,667
454,70	26,717
454,91	26,787
455,11	26,870
455,31	26,895
455,52	27,044
455,72	27,041
455,92	27,021
456,13	27,067
456,33	27,170
456,54	27,127
456,74	27,202
456,94	27,295
457,15	27,199
457,35	27,286
457,56	27,454
457,76	27,412
457,96	27,504
458,17	27,572
458,37	27,616
458,57	27,559
458,78	27,689
458,98	27,656
459,19	27,667
459,39	27,642
459,59	27,628
459,80	27,574
460,00	27,569
460,20	27,591
460,41	27,617
460,61	27,651
460,81	27,696
461,02	27,587
461,22	27,619
461,43	27,599
461,63	27,663
461,83	27,665
462,04	27,597
462,24	27,590
462,44	27,596
462,65	27,553
462,85	27,522
463,05	27,495
463,26	27,538
463,46	27,515
463,66	27,568
463,87	27,576
464,07	27,592
464,27	27,637
464,48	27,641
464,68	27,643
464,88	27,688
465,09	27,683
465,29	27,715
465,49	27,770
465,70	27,870
465,90	27,820
466,10	27,848
466,31	27,798
466,51	27,896
466,71	27,903
466,92	28,030
467,12	28,013
467,32	28,113
467,53	28,091
467,73	28,117
467,93	28,079
468,13	28,171
468,34	28,205
468,54	28,311
468,74	28,303
468,95	28,371
469,15	28,325
469,35	28,403
469,56	28,369
469,76	28,441
469,96	28,427
470,17	28,464
470,37	28,436
470,57	28,422
470,77	28,403
470,98	28,341
471,18	28,452
471,38	28,489
471,59	28,457
471,79	28,500
471,99	28,571
472,19	28,600
472,40	28,607
472,60	28,620
472,80	28,630
473,01	28,654
473,21	28,690
473,41	28,605
473,61	28,559
473,82	28,558
474,02	28,538
474,22	28,510
474,42	28,499
474,63	28,500
474,83	28,509
475,03	28,555
475,24	28,546
475,44	28,561
475,64	28,574
475,84	28,610
476,05	28,634
476,25	28,707
476,45	28,677
476,65	28,687
476,86	28,717
477,06	28,750
477,26	28,736
477,46	28,773
477,67	28,736
477,87	28,724
478,07	28,734
478,27	28,750
478,48	28,736
478,68	28,733
478,88	28,753
479,08	28,816
479,29	28,813
479,49	28,789
479,69	28,784
479,89	28,844
480,09	28,933
480,30	28,923
480,50	28,925
480,70	28,921
480,90	28,965
481,11	28,965
481,31	28,910
481,51	28,965
481,71	29,018
481,91	29,060
482,12	29,046
482,32	29,040
482,52	29,119
482,72	29,158
482,93	29,141
483,13	29,151
483,33	29,224
483,53	29,233
483,73	29,200
483,94	29,208
484,14	29,187
484,34	29,197
484,54	29,116
484,74	29,048
484,95	29,019
485,15	29,014
485,35	28,979
485,55	28,933
485,75	28,935
485,96	28,903
486,16	28,860
486,36	28,859
486,56	28,847
486,76	28,853
486,97	28,834
487,17	28,834
487,37	28,814
487,57	28,797
487,77	28,718
487,97	28,699
488,18	28,714
488,38	28,694
488,58	28,649
488,78	28,607
488,98	28,608
489,18	28,606
489,39	28,533
489,59	28,539
489,79	28,545
489,99	28,550
490,19	28,537
490,39	28,485
490,60	28,486
490,80	28,426
491,00	28,403
491,20	28,335
491,40	28,264
491,60	28,222
491,81	28,183
492,01	28,135
492,21	28,124
492,41	28,120
492,61	28,061
492,81	28,046
493,01	28,123
493,22	28,108
493,42	28,122
493,62	28,113
493,82	28,126
494,02	28,124
494,22	28,055
494,42	28,048
494,63	27,909
494,83	27,914
495,03	27,877
495,23	27,790
495,43	27,770
495,63	27,776
495,83	27,737
496,03	27,707
496,24	27,631
496,44	27,670
496,64	27,626
496,84	27,629
497,04	27,601
497,24	27,641
497,44	27,636
497,64	27,646
497,85	27,548
498,05	27,592
498,25	27,616
498,45	27,664
498,65	27,645
498,85	27,613
499,05	27,631
499,25	27,682
499,45	27,653
499,66	27,716
499,86	27,676
500,06	27,803
500,26	27,753
500,46	27,761
500,66	27,750
500,86	27,730
501,06	27,761
501,26	27,868
501,46	27,943
501,66	27,893
501,87	27,867
502,07	27,884
502,27	27,846
502,47	27,896
502,67	27,856
502,87	27,882
503,07	27,937
503,27	27,931
503,47	27,924
503,67	27,836
503,87	27,919
504,07	27,888
504,27	27,885
504,47	27,871
504,68	27,856
504,88	27,908
505,08	27,898
505,28	27,895
505,48	27,892
505,68	27,782
505,88	27,759
506,08	27,695
506,28	27,667
506,48	27,711
506,68	27,723
506,88	27,766
507,08	27,717
507,28	27,673
507,48	27,647
507,68	27,703
507,88	27,701
508,08	27,770
508,28	27,766
508,49	27,840
508,69	27,787
508,89	27,780
509,09	27,757
509,29	27,787
509,49	27,864
509,69	27,873
509,89	27,842
510,09	27,876
510,29	27,846
510,49	27,823
510,69	27,712
510,89	27,706
511,09	27,695
511,29	27,679
511,49	27,704
511,69	27,690
511,89	27,707
512,09	27,685
512,29	27,713
512,49	27,661
512,69	27,698
512,89	27,720
513,09	27,702
513,29	27,736
513,49	27,706
513,69	27,643
513,89	27,578
514,09	27,568
514,29	27,581
514,49	27,547
514,69	27,573
514,89	27,560
515,09	27,569
515,29	27,679
515,49	27,687
515,69	27,690
515,89	27,716
516,09	27,745
516,29	27,736
516,49	27,798
516,69	27,744
516,89	27,736
517,09	27,758
517,29	27,755
517,49	27,660
517,69	27,629
517,89	27,639
518,09	27,669
518,29	27,689
518,49	27,710
518,69	27,629
518,89	27,675
519,09	27,718
519,29	27,690
519,49	27,716
519,68	27,733
519,88	27,736
520,08	27,724
520,28	27,712
520,48	27,724
520,68	27,664
520,88	27,675
521,08	27,678
521,28	27,644
521,48	27,630
521,68	27,611
521,88	27,637
522,08	27,631
522,28	27,656
522,48	27,637
522,68	27,576
522,88	27,604
523,08	27,574
523,28	27,650
523,47	27,617
523,67	27,686
523,87	27,679
524,07	27,628
524,27	27,552
524,47	27,521
524,67	27,503
524,87	27,567
525,07	27,560
525,27	27,615
525,47	27,533
525,67	27,544
525,87	27,494
526,06	27,505
526,26	27,568
526,46	27,607
526,66	27,642
526,86	27,688
527,06	27,635
527,26	27,640
527,46	27,624
527,66	27,607
527,86	27,600
528,06	27,619
528,25	27,587
528,45	27,584
528,65	27,585
528,85	27,621
529,05	27,641
529,25	27,679
529,45	27,684
529,65	27,661
529,85	27,678
530,04	27,636
530,24	27,598
530,44	27,663
530,64	27,619
530,84	27,678
531,04	27,572
531,24	27,505
531,44	27,494
531,64	27,497
531,83	27,464
532,03	27,459
532,23	27,522
532,43	27,523
532,63	27,475
532,83	27,523
533,03	27,445
533,22	27,494
533,42	27,476
533,62	27,428
533,82	27,367
534,02	27,403
534,22	27,385
534,42	27,398
534,62	27,369
534,81	27,400
535,01	27,310
535,21	27,354
535,41	27,368
535,61	27,321
535,81	27,293
536,00	27,293
536,20	27,337
536,40	27,308
536,60	27,230
536,80	27,269
537,00	27,253
537,19	27,337
537,39	27,240
537,59	27,174
537,79	27,207
537,99	27,220
538,19	27,190
538,38	27,138
538,58	27,223
538,78	27,253
538,98	27,194
539,18	27,182
539,38	27,108
539,57	27,140
539,77	27,163
539,97	27,207
540,17	27,252
540,37	27,304
540,56	27,312
540,76	27,339
540,96	27,342
541,16	27,346
541,36	27,391
541,56	27,438
541,75	27,484
541,95	27,492
542,15	27,609
542,35	27,605
542,55	27,592
542,74	27,630
542,94	27,637
543,14	27,726
543,34	27,827
543,53	27,854
543,73	27,881
543,93	27,950
544,13	27,955
544,33	27,923
544,52	28,080
544,72	28,284
544,92	28,465
545,12	28,618
545,32	28,793
545,51	28,986
545,71	29,143
545,91	29,300
546,11	29,361
546,30	29,509
546,50	29,553
546,70	29,472
546,90	29,351
547,09	29,180
547,29	29,018
547,49	28,772
547,69	28,470
547,88	28,225
548,08	28,070
548,28	27,996
548,48	27,886
548,67	27,795
548,87	27,695
549,07	27,644
549,27	27,614
549,46	27,536
549,66	27,510
549,86	27,533
550,06	27,562
550,25	27,491
550,45	27,393
550,65	27,398
550,85	27,374
551,04	27,387
551,24	27,411
551,44	27,434
551,64	27,487
551,83	27,538
552,03	27,535
552,23	27,504
552,43	27,501
552,62	27,590
552,82	27,532
553,02	27,530
553,21	27,539
553,41	27,550
553,61	27,472
553,81	27,457
554,00	27,443
554,20	27,419
554,40	27,439
554,59	27,496
554,79	27,464
554,99	27,530
555,19	27,576
555,38	27,592
555,58	27,528
555,78	27,547
555,97	27,554
556,17	27,507
556,37	27,474
556,56	27,483
556,76	27,466
556,96	27,466
557,15	27,505
557,35	27,516
557,55	27,486
557,75	27,473
557,94	27,480
558,14	27,467
558,34	27,459
558,53	27,609
558,73	27,604
558,93	27,619
559,12	27,577
559,32	27,528
559,52	27,523
559,71	27,533
559,91	27,628
560,11	27,673
560,30	27,663
560,50	27,695
560,70	27,670
560,89	27,660
561,09	27,593
561,29	27,620
561,48	27,624
561,68	27,601
561,88	27,573
562,07	27,507
562,27	27,485
562,47	27,566
562,66	27,602
562,86	27,559
563,05	27,630
563,25	27,658
563,45	27,701
563,64	27,786
563,84	27,809
564,04	27,826
564,23	27,881
564,43	27,919
564,63	27,884
564,82	27,918
565,02	27,897
565,21	27,888
565,41	27,922
565,61	27,883
565,80	27,842
566,00	27,841
566,20	27,932
566,39	27,935
566,59	27,859
566,78	27,891
566,98	27,826
567,18	27,907
567,37	27,860
567,57	27,878
567,77	27,955
567,96	27,888
568,16	27,918
568,35	27,907
568,55	27,870
568,75	27,905
568,94	27,857
569,14	27,942
569,33	27,846
569,53	27,850
569,73	27,892
569,92	27,866
570,12	27,925
570,31	27,947
570,51	27,896
570,71	27,956
570,90	28,027
571,10	28,064
571,29	28,033
571,49	28,094
571,68	28,153
571,88	28,137
572,08	28,132
572,27	28,132
572,47	28,105
572,66	28,109
572,86	28,048
573,05	28,007
573,25	27,979
573,45	27,952
573,64	27,991
573,84	27,973
574,03	27,999
574,23	27,981
574,42	28,036
574,62	28,015
574,82	28,003
575,01	27,991
575,21	27,988
575,40	28,042
575,60	28,058
575,79	28,008
575,99	28,019
576,18	28,050
576,38	28,109
576,57	28,100
576,77	28,123
576,97	28,219
577,16	28,242
577,36	28,311
577,55	28,264
577,75	28,323
577,94	28,325
578,14	28,309
578,33	28,245
578,53	28,264
578,72	28,216
578,92	28,233
579,11	28,183
579,31	28,198
579,50	28,138
579,70	28,118
579,89	28,002
580,09	28,052
580,28	28,057
580,48	28,047
580,68	27,964
580,87	27,959
581,07	27,892
581,26	27,897
581,46	27,848
581,65	27,831
581,85	27,821
582,04	27,907
582,24	27,815
582,43	27,814
582,63	27,796
582,82	27,817
583,02	27,847
583,21	27,895
583,41	27,870
583,60	27,935
583,80	27,914
583,99	27,952
584,18	27,927
584,38	28,054
584,57	28,045
584,77	28,051
584,96	28,024
585,16	28,004
585,35	27,955
585,55	27,982
585,74	27,961
585,94	27,965
586,13	27,945
586,33	27,929
586,52	27,841
586,72	27,872
586,91	27,865
587,11	27,945
587,30	27,943
587,49	28,026
587,69	28,015
587,88	27,998
588,08	27,998
588,27	28,035
588,47	28,034
588,66	28,070
588,86	28,018
589,05	28,087
589,25	27,991
589,44	27,943
589,63	27,896
589,83	27,870
590,02	27,848
590,22	27,897
590,41	27,832
590,61	27,862
590,80	27,809
591,00	27,791
591,19	27,664
591,38	27,666
591,58	27,632
591,77	27,628
591,97	27,666
592,16	27,712
592,35	27,671
592,55	27,727
592,74	27,696
592,94	27,710
593,13	27,744
593,33	27,837
593,52	27,807
593,71	27,844
593,91	27,779
594,10	27,819
594,30	27,784
594,49	27,810
594,68	27,813
594,88	27,829
595,07	27,789
595,27	27,839
595,46	27,749
595,65	27,810
595,85	27,904
596,04	27,948
596,24	27,870
596,43	27,879
596,62	27,824
596,82	27,836
597,01	27,797
597,21	27,866
597,40	27,737
597,59	27,801
597,79	27,803
597,98	27,701
598,17	27,637
598,37	27,652
598,56	27,570
598,76	27,594
598,95	27,536
599,14	27,581
599,34	27,513
599,53	27,623
599,72	27,615
599,92	27,623
600,11	27,648
600,30	27,731
600,50	27,742
600,69	27,812
600,89	27,827
601,08	27,890
601,27	27,871
601,47	27,911
601,66	27,822
601,85	27,806
602,05	27,798
602,24	27,792
602,43	27,756
602,63	27,727
602,82	27,689
603,01	27,629
603,21	27,586
603,40	27,602
603,59	27,597
603,79	27,694
603,98	27,687
604,17	27,659
604,37	27,697
604,56	27,735
604,75	27,711
604,95	27,732
605,14	27,759
605,33	27,766
605,53	27,702
605,72	27,698
605,91	27,608
606,11	27,599
606,30	27,601
606,49	27,568
606,68	27,597
606,88	27,627
607,07	27,623
607,26	27,619
607,46	27,657
607,65	27,723
607,84	27,685
608,04	27,802
608,23	27,793
608,42	27,881
608,61	27,876
608,81	27,828
609,00	27,859
609,19	27,906
609,39	27,972
609,58	27,884
609,77	27,893
609,96	27,928
610,16	27,888
610,35	27,937
610,54	27,821
610,74	27,873
610,93	27,909
611,12	27,872
611,31	27,847
611,51	27,761
611,70	27,748
611,89	27,707
612,08	27,720
612,28	27,635
612,47	27,554
612,66	27,559
612,86	27,499
613,05	27,438
613,24	27,452
613,43	27,499
613,63	27,513
613,82	27,558
614,01	27,502
614,20	27,540
614,40	27,554
614,59	27,673
614,78	27,727
614,97	27,753
615,17	27,776
615,36	27,801
615,55	27,733
615,74	27,771
615,93	27,712
616,13	27,779
616,32	27,735
616,51	27,801
616,70	27,763
616,90	27,697
617,09	27,628
617,28	27,655
617,47	27,602
617,67	27,610
617,86	27,593
618,05	27,627
618,24	27,669
618,43	27,681
618,63	27,698
618,82	27,673
619,01	27,745
619,20	27,772
619,39	27,742
619,59	27,763
619,78	27,771
619,97	27,817
620,16	27,820
620,35	27,756
620,55	27,787
620,74	27,703
620,93	27,654
621,12	27,675
621,31	27,628
621,51	27,640
621,70	27,633
621,89	27,699
622,08	27,700
622,27	27,771
622,47	27,724
622,66	27,670
622,85	27,735
623,04	27,776
623,23	27,672
623,42	27,772
623,62	27,754
623,81	27,736
624,00	27,669
624,19	27,591
624,38	27,547
624,57	27,646
624,77	27,669
624,96	27,603
625,15	27,629
625,34	27,712
625,53	27,696
625,72	27,692
625,92	27,716
626,11	27,759
626,30	27,770
626,49	27,792
626,68	27,707
626,87	27,694
627,06	27,742
627,26	27,743
627,45	27,696
627,64	27,683
627,83	27,654
628,02	27,677
628,21	27,614
628,40	27,646
628,60	27,587
628,79	27,624
628,98	27,624
629,17	27,608
629,36	27,587
629,55	27,653
629,74	27,654
629,93	27,693
630,12	27,640
630,32	27,657
630,51	27,631
630,70	27,623
630,89	27,643
631,08	27,631
631,27	27,627
631,46	27,646
631,65	27,592
631,84	27,626
632,04	27,563
632,23	27,597
632,42	27,567
632,61	27,559
632,80	27,594
632,99	27,565
633,18	27,603
633,37	27,522
633,56	27,514
633,75	27,471
633,95	27,409
634,14	27,443
634,33	27,416
634,52	27,417
634,71	27,368
634,90	27,315
635,09	27,296
635,28	27,273
635,47	27,342
635,66	27,344
635,85	27,309
636,04	27,326
636,23	27,261
636,43	27,346
636,62	27,362
636,81	27,386
637,00	27,387
637,19	27,337
637,38	27,274
637,57	27,300
637,76	27,215
637,95	27,269
638,14	27,230
638,33	27,316
638,52	27,171
638,71	27,193
638,90	27,159
639,09	27,142
639,28	27,180
639,47	27,292
639,66	27,164
639,85	27,201
640,05	27,169
640,24	27,198
640,43	27,162
640,62	27,182
640,81	27,136
641,00	27,172
641,19	27,161
641,38	27,161
641,57	27,014
641,76	27,134
641,95	27,131
642,14	27,180
642,33	27,111
642,52	27,154
642,71	27,184
642,90	27,212
643,09	27,163
643,28	27,154
643,47	27,157
643,66	27,210
643,85	27,165
644,04	27,230
644,23	27,204
644,42	27,223
644,61	27,167
644,80	27,172
644,99	27,108
645,18	27,197
645,37	27,222
645,56	27,227
645,75	27,208
645,94	27,220
646,13	27,187
646,32	27,144
646,51	27,184
646,70	27,219
646,89	27,112
647,08	27,198
647,27	27,091
647,46	27,054
647,65	27,047
647,84	27,075
648,03	27,099
648,22	27,045
648,41	27,079
648,60	27,074
648,78	27,031
648,97	27,056
649,16	27,017
649,35	27,102
649,54	27,156
649,73	27,192
649,92	27,165
650,11	27,082
650,30	27,051
650,49	27,014
650,68	26,963
650,87	27,031
651,06	27,083
651,25	27,038
651,44	27,036
651,63	27,015
651,82	26,871
652,01	26,870
652,20	26,845
652,38	26,886
652,57	26,885
652,76	26,967
652,95	26,908
653,14	26,885
653,33	26,908
653,52	26,887
653,71	26,855
653,90	26,995
654,09	26,996
654,28	27,018
654,47	26,974
654,66	27,003
654,84	26,953
655,03	26,898
655,22	26,887
655,41	26,867
655,60	26,853
655,79	26,871
655,98	26,803
656,17	26,785
656,36	26,769
656,55	26,810
656,73	26,776
656,92	26,760
657,11	26,767
657,30	26,773
657,49	26,767
657,68	26,749
657,87	26,704
658,06	26,678
658,25	26,644
658,43	26,697
658,62	26,676
658,81	26,686
659,00	26,644
659,19	26,655
659,38	26,727
659,57	26,737
659,76	26,700
659,94	26,752
660,13	26,723
660,32	26,770
660,51	26,688
660,70	26,680
660,89	26,650
661,08	26,713
661,26	26,753
661,45	26,744
661,64	26,692
661,83	26,720
662,02	26,752
662,21	26,817
662,40	26,858
662,58	26,872
662,77	26,843
662,96	26,865
663,15	26,826
663,34	26,874
663,53	26,878
663,71	26,893
663,90	26,906
664,09	26,842
664,28	26,831
664,47	26,793
664,66	26,842
664,84	26,872
665,03	26,888
665,22	26,900
665,41	26,854
665,60	26,805
665,79	26,813
665,97	26,864
666,16	26,904
666,35	26,827
666,54	26,892
666,73	26,899
666,91	26,982
667,10	27,031
667,29	27,053
667,48	27,021
667,67	26,998
667,85	27,011
668,04	26,946
668,23	26,952
668,42	27,009
668,61	26,928
668,79	26,857
668,98	26,739
669,17	26,647
669,36	26,624
669,55	26,632
669,73	26,671
669,92	26,663
670,11	26,705
670,30	26,636
670,48	26,707
670,67	26,664
670,86	26,726
671,05	26,746
671,24	26,793
671,42	26,780
671,61	26,753
671,80	26,689
671,99	26,686
672,17	26,641
672,36	26,654
672,55	26,607
672,74	26,600
672,92	26,550
673,11	26,654
673,30	26,605
673,49	26,635
673,67	26,650
673,86	26,628
674,05	26,555
674,24	26,591
674,42	26,620
674,61	26,554
674,80	26,555
674,99	26,596
675,17	26,487
675,36	26,520
675,55	26,473
675,74	26,412
675,92	26,429
676,11	26,511
676,30	26,458
676,48	26,511
676,67	26,555
676,86	26,605
677,05	26,608
677,23	26,595
677,42	26,597
677,61	26,640
677,80	26,670
677,98	26,661
678,17	26,673
678,36	26,675
678,54	26,622
678,73	26,656
678,92	26,669
679,10	26,742
679,29	26,741
679,48	26,705
679,67	26,646
679,85	26,684
680,04	26,669
680,23	26,707
680,41	26,728
680,60	26,747
680,79	26,690
680,97	26,734
681,16	26,612
681,35	26,677
681,53	26,709
681,72	26,735
681,91	26,698
682,09	26,749
682,28	26,645
682,47	26,644
682,65	26,582
682,84	26,598
683,03	26,473
683,21	26,462
683,40	26,364
683,59	26,322
683,77	26,290
683,96	26,287
684,15	26,259
684,33	26,288
684,52	26,262
684,71	26,332
684,89	26,399
685,08	26,484
685,27	26,486
685,45	26,547
685,64	26,634
685,83	26,676
686,01	26,667
686,20	26,687
686,39	26,727
686,57	26,743
686,76	26,705
686,94	26,670
687,13	26,614
687,32	26,651
687,50	26,605
687,69	26,550
687,88	26,541
688,06	26,613
688,25	26,574
688,43	26,552
688,62	26,576
688,81	26,611
688,99	26,513
689,18	26,498
689,36	26,493
689,55	26,546
689,74	26,533
689,92	26,520
690,11	26,423
690,30	26,460
690,48	26,464
690,67	26,441
690,85	26,454
691,04	26,538
691,22	26,549
691,41	26,572
691,60	26,580
691,78	26,546
691,97	26,501
692,15	26,573
692,34	26,558
692,53	26,564
692,71	26,556
692,90	26,560
693,08	26,496
693,27	26,537
693,45	26,482
693,64	26,451
693,83	26,432
694,01	26,430
694,20	26,361
694,38	26,359
694,57	26,265
694,75	26,258
694,94	26,120
695,13	26,167
695,31	26,162
695,50	26,255
695,68	26,231
695,87	26,246
696,05	26,360
696,24	26,443
696,42	26,445
696,61	26,562
696,80	26,586
696,98	26,643
697,17	26,583
697,35	26,644
697,54	26,610
697,72	26,604
697,91	26,726
698,09	26,636
698,28	26,578
698,46	26,610
698,65	26,628
698,83	26,615
699,02	26,607
699,20	26,610
699,39	26,483
699,57	26,414
699,76	26,435
699,94	26,304
700,13	26,272
700,32	26,293
700,50	26,334
700,69	26,293
700,87	26,263
701,06	26,287
701,24	26,304
701,43	26,354
701,61	26,398
701,80	26,359
701,98	26,508
702,17	26,604
702,35	26,538
702,54	26,472
702,72	26,352
702,90	26,351
703,09	26,350
703,27	26,423
703,46	26,386
703,64	26,376
703,83	26,418
704,01	26,327
704,20	26,218
704,38	26,250
704,57	26,236
704,75	26,433
704,94	26,459
705,12	26,425
705,31	26,369
705,49	26,454
705,68	26,392
705,86	26,356
706,05	26,343
706,23	26,379
706,41	26,394
706,60	26,410
706,78	26,291
706,97	26,221
707,15	26,248
707,34	26,204
707,52	26,117
707,71	26,227
707,89	26,263
708,07	26,310
708,26	26,309
708,44	26,423
708,63	26,406
708,81	26,430
709,00	26,508
709,18	26,519
709,37	26,592
709,55	26,645
709,73	26,578
709,92	26,598
710,10	26,512
710,29	26,505
710,47	26,355
710,65	26,358
710,84	26,312
711,02	26,254
711,21	26,228
711,39	26,226
711,58	26,173
711,76	26,081
711,94	25,994
712,13	26,007
712,31	25,936
712,50	25,974
712,68	25,879
712,86	25,878
713,05	25,850
713,23	25,829
713,41	25,732
713,60	25,739
713,78	25,799
713,97	25,818
714,15	25,769
714,33	25,808
714,52	25,836
714,70	25,869
714,89	25,827
715,07	25,898
715,25	25,912
715,44	26,011
715,62	26,001
715,80	26,010
715,99	26,013
716,17	26,003
716,36	25,935
716,54	25,818
716,72	25,793
716,91	25,783
717,09	25,714
717,27	25,666
717,46	25,565
717,64	25,443
717,82	25,409
718,01	25,444
718,19	25,473
718,37	25,579
718,56	25,645
718,74	25,734
718,92	25,778
719,11	25,774
719,29	25,806
719,47	25,829
719,66	25,910
719,84	25,851
720,02	25,703
720,21	25,794
720,39	25,858
720,57	25,833
720,76	25,791
720,94	25,835
721,12	25,806
721,31	25,763
721,49	25,619
721,67	25,611
721,86	25,698
722,04	25,750
722,22	25,603
722,41	25,402
722,59	25,390
722,77	25,385
722,95	25,235
723,14	25,205
723,32	25,264
723,50	25,353
723,69	25,280
723,87	25,222
724,05	25,186
724,24	25,237
724,42	25,240
724,60	25,243
724,78	25,258
724,97	25,272
725,15	25,286
725,33	25,215
725,52	25,208
725,70	25,255
725,88	25,182
726,06	25,229
726,25	25,132
726,43	25,195
726,61	25,230
726,79	25,149
726,98	25,098
727,16	25,077
727,34	25,066
727,52	25,075
727,71	25,084
727,89	25,117
728,07	25,045
728,25	25,091
728,44	25,027
728,62	24,874
728,80	24,845
728,98	24,881
729,17	24,806
729,35	24,774
729,53	24,725
729,71	24,675
729,90	24,677
730,08	24,770
730,26	24,727
730,44	24,737
730,63	24,838
730,81	24,892
730,99	24,937
731,17	25,126
731,35	25,113
731,54	25,205
731,72	25,149
731,90	25,150
732,08	25,082
732,27	25,060
732,45	24,993
732,63	25,000
732,81	24,966
732,99	24,895
733,18	24,770
733,36	24,792
733,54	24,703
733,72	24,690
733,90	24,672
734,09	24,685
734,27	24,684
734,45	24,806
734,63	24,738
734,81	24,667
735,00	24,727
735,18	24,777
735,36	24,693
735,54	24,633
735,72	24,808
735,90	24,825
736,09	24,739
736,27	24,830
736,45	24,743
736,63	24,867
736,81	24,997
737,00	24,956
737,18	24,948
737,36	25,008
737,54	25,076
737,72	24,981
737,90	24,987
738,09	25,079
738,27	25,017
738,45	25,094
738,63	24,936
738,81	24,878
738,99	24,883
739,17	24,809
739,36	24,713
739,54	24,708
739,72	24,624
739,90	24,639
740,08	24,666
740,26	24,692
740,44	24,590
740,63	24,641
740,81	24,551
740,99	24,646
741,17	24,666
741,35	24,763
741,53	24,671
741,71	24,795
741,89	24,716
742,08	24,617
742,26	24,691
742,44	24,773
742,62	24,691
742,80	24,762
742,98	24,779
743,16	24,719
743,34	24,654
743,52	24,787
743,71	24,680
743,89	24,646
744,07	24,661
744,25	24,612
744,43	24,568
744,61	24,625
744,79	24,596
744,97	24,424
745,15	24,563
745,33	24,661
745,51	24,542
745,70	24,661
745,88	24,751
746,06	24,783
746,24	24,760
746,42	24,805
746,60	24,780
746,78	24,770
746,96	24,979
747,14	24,944
747,32	24,883
747,50	24,993
747,68	24,911
747,86	24,879
748,05	24,871
748,23	24,878
748,41	24,844
748,59	24,832
748,77	24,812
748,95	24,598
749,13	24,534
749,31	24,555
749,49	24,520
749,67	24,441
749,85	24,545
750,03	24,657
750,21	24,560
750,39	24,628
750,57	24,764
750,75	24,943
750,93	25,165
751,11	25,279
751,29	25,325
751,47	25,348
751,65	25,449
751,83	25,406
752,01	25,362
752,19	25,449
752,37	25,361
752,55	25,293
752,73	25,254
752,92	25,239
753,10	25,126
753,28	25,133
753,46	25,092
753,64	25,167
753,82	25,217
754,00	25,248
754,18	25,191
754,36	25,257
754,54	25,265
754,72	25,193
754,90	25,084
755,08	25,224
755,26	25,145
755,44	25,246
755,61	25,235
755,79	25,264
755,97	25,216
756,15	25,258
756,33	25,248
756,51	25,247
756,69	25,273
756,87	25,253
757,05	25,133
757,23	25,306
757,41	25,277
757,59	25,227
757,77	25,173
757,95	25,247
758,13	25,231
758,31	25,237
758,49	25,175
758,67	25,146
758,85	25,218
759,03	25,248
759,21	25,132
759,39	25,097
759,57	25,148
759,75	25,151
759,93	25,156
760,11	25,156
760,29	25,274
760,46	25,355
760,64	25,338
760,82	25,445
761,00	25,432
761,18	25,431
761,36	25,553
761,54	25,575
761,72	25,555
761,90	25,502
762,08	25,489
762,26	25,415
762,44	25,395
762,62	25,464
762,80	25,353
762,97	25,416
763,15	25,489
763,33	25,413
763,51	25,367
763,69	25,490
763,87	25,477
764,05	25,448
764,23	25,392
764,41	25,462
764,59	25,424
764,76	25,535
764,94	25,491
765,12	25,392
765,30	25,263
765,48	25,242
765,66	25,072
765,84	25,087
766,02	25,215
766,20	25,236
766,37	25,157
766,55	25,213
766,73	25,005
766,91	25,046
767,09	25,040
767,27	25,191
767,45	25,227
767,63	25,322
767,80	25,273
767,98	25,282
768,16	25,280
768,34	25,281
768,52	25,205
768,70	25,277
768,88	25,236
769,05	25,296
769,23	25,251
769,41	25,258
769,59	25,166
769,77	25,210
769,95	25,060
770,13	25,034
770,30	25,055
770,48	25,121
770,66	25,119
770,84	25,113
771,02	25,099
771,20	25,110
771,37	25,130
771,55	25,173
771,73	25,096
771,91	25,289
772,09	25,293
772,27	25,211
772,44	25,196
772,62	25,191
772,80	25,219
772,98	25,188
773,16	25,134
773,33	24,949
773,51	24,979
773,69	25,031
773,87	24,854
774,05	24,912
774,22	24,897
774,40	24,776
774,58	24,760
774,76	24,695
774,94	24,661
775,11	24,622
775,29	24,716
775,47	24,570
775,65	24,376
775,83	24,397
776,00	24,187
776,18	24,224
776,36	24,239
776,54	24,190
776,71	24,258
776,89	24,207
777,07	24,211
777,25	24,194
777,43	24,395
777,60	24,524
777,78	24,571
777,96	24,723
778,14	24,672
778,31	24,687
778,49	24,603
778,67	24,492
778,85	24,593
779,02	24,541
779,20	24,500
779,38	24,335
779,56	24,281
779,73	24,256
779,91	24,271
780,09	24,329
780,27	24,372
780,44	24,414
780,62	24,437
780,80	24,345
780,98	24,400
781,15	24,345
781,33	24,360
781,51	24,342
781,68	24,258
781,86	24,218
782,04	24,121
782,22	24,142
782,39	24,098
782,57	24,054
782,75	23,945
782,92	23,864
783,10	23,780
783,28	23,853
783,46	23,958
783,63	24,002
783,81	23,829
783,99	23,830
784,16	23,691
784,34	23,759
784,52	23,833
784,70	24,081
784,87	24,106
785,05	24,409
785,23	24,231
785,40	24,220
785,58	24,074
785,76	24,081
785,93	24,077
786,11	24,104
786,29	24,061
786,46	23,969
786,64	23,759
786,82	23,707
786,99	23,363
787,17	23,281
787,35	23,198
787,52	23,203
787,70	23,258
787,88	23,252
788,05	23,103
788,23	23,044
788,41	22,981
788,58	22,999
788,76	23,148
788,94	23,191
789,11	23,220
789,29	23,210
789,47	23,235
789,64	23,134
789,82	23,062
789,99	23,093
790,17	22,950
790,35	22,947
790,52	22,978
790,70	22,848
790,88	22,944
791,05	23,179
791,23	23,157
791,41	23,203
791,58	23,311
791,76	23,300
791,93	23,343
792,11	23,578
792,29	23,663
792,46	23,524
792,64	23,376
792,81	23,344
792,99	23,099
793,17	22,941
793,34	22,856
793,52	22,754
793,69	22,668
793,87	22,727
794,05	22,563
794,22	22,675
794,40	22,784
794,57	22,873
794,75	22,762
794,93	22,705
795,10	22,708
795,28	22,735
795,45	22,802
795,63	22,941
795,81	22,816
795,98	22,770
796,16	22,425
796,33	22,220
796,51	22,288
796,68	22,364
796,86	22,469
797,04	22,481
797,21	22,443
797,39	22,293
797,56	22,235
797,74	22,193
797,91	22,117
798,09	22,134
798,26	22,157
798,44	22,062
798,62	21,893
798,79	21,817
798,97	21,748
799,14	21,753
799,32	21,690
799,49	21,695
799,67	21,774
799,84	21,802
800,02	21,722
800,19	21,691
800,37	21,615
800,55	21,790
800,72	21,698
800,90	21,817
801,07	21,529
801,25	21,522
801,42	21,546
801,60	21,417
801,77	21,497
801,95	21,558
802,12	21,759
802,30	21,777
802,47	21,586
802,65	21,655
802,82	21,784
803,00	21,795
803,17	21,714
803,35	21,489
803,52	21,490
803,70	21,537
803,87	21,416
804,05	21,420
804,22	21,330
804,40	21,448
804,57	21,407
804,75	21,184
804,92	21,241
805,10	21,263
805,27	21,155
805,45	21,267
805,62	21,155
805,80	21,206
805,97	21,118
806,14	21,207
806,32	21,157
806,49	21,239
806,67	21,465
806,84	21,530
807,02	21,725
807,19	21,985
807,37	22,033
807,54	21,915
807,72	21,887
807,89	21,788
808,06	21,630
808,24	21,611
808,41	21,428
808,59	21,229
808,76	21,313
808,94	21,255
809,11	21,125
809,29	21,147
809,46	21,135
809,63	21,191
809,81	21,097
809,98	21,169
810,16	20,985
810,33	21,058
810,51	21,020
810,68	20,764
810,85	20,860
811,03	20,847
811,20	20,473
811,38	20,651
811,55	20,636
811,73	20,730
811,90	20,868
812,07	20,860
812,25	21,108
812,42	21,039
812,60	21,275
812,77	20,991
812,94	20,964
813,12	21,065
813,29	20,806
813,46	20,996
813,64	20,905
813,81	20,765
813,99	20,946
814,16	20,798
814,33	20,898
814,51	20,990
814,68	20,916
814,86	20,848
815,03	20,835
815,20	21,051
815,38	20,872
815,55	20,761
815,72	20,605
815,90	20,470
816,07	20,188
816,25	20,077
816,42	19,844
816,59	20,166
816,77	20,202
816,94	20,193
817,11	20,075
817,29	20,128
817,46	20,415
817,63	20,443
817,81	20,297
817,98	20,433
818,15	20,612
818,33	20,669
818,50	20,615
818,67	20,743
818,85	20,586
819,02	20,607
819,19	20,898
819,37	20,719
819,54	20,718
819,71	20,877
819,89	20,838
820,06	20,816
820,23	20,573
820,41	20,427
820,58	20,155
820,75	20,339
820,93	20,545
821,10	20,047
821,27	20,093
821,44	20,006
821,62	19,966
821,79	20,022
821,96	19,761
822,14	19,669
822,31	19,623
822,48	20,012
822,66	19,869
822,83	19,519
823,00	19,895
823,17	19,947
823,35	20,260
823,52	20,409
823,69	20,172
823,87	19,940
824,04	20,124
824,21	20,191
824,38	19,869
824,56	19,901
824,73	19,916
824,90	19,582
825,07	19,322
825,25	18,995
825,42	19,069
825,59	19,036
825,76	19,518
825,94	19,664
826,11	19,625
826,28	19,535
826,46	19,550
826,63	19,491
826,80	19,591
826,97	19,754
827,14	19,862
827,32	19,708
827,49	19,474
827,66	19,224
827,83	18,991
828,01	18,914
828,18	18,888
828,35	18,876
828,52	18,668
828,70	18,616
828,87	18,801
829,04	18,833
829,21	18,570
829,38	18,979
829,56	19,076
829,73	19,277
829,90	19,100
830,07	19,557
830,25	19,479
830,42	19,656
830,59	19,601
830,76	19,527
830,93	19,451
831,11	19,485
831,28	19,199
831,45	18,902
831,62	18,715
831,79	18,686
831,97	18,331
832,14	18,257
832,31	18,571
832,48	18,542
832,65	18,384
832,82	18,396
833,00	18,457
833,17	18,560
833,34	18,520
833,51	18,328
833,68	18,351
833,85	18,302
834,03	18,413
834,20	18,270
834,37	17,989
834,54	18,029
834,71	17,895
834,88	18,082
835,06	17,989
835,23	18,329
835,40	18,633
835,57	18,905
835,74	19,049
835,91	19,029
836,08	19,005
836,26	19,119
836,43	19,004
836,60	19,015
836,77	18,602
836,94	18,875
837,11	18,570
837,28	18,231
837,46	17,872
837,63	17,882
837,80	17,822
837,97	17,638
838,14	17,651
838,31	17,373
838,48	17,168
838,65	17,357
838,83	17,235
839,00	17,287
839,17	17,538
839,34	17,557
839,51	17,251
839,68	17,053
839,85	16,967
840,02	16,998
840,19	16,974
840,36	17,137
840,54	17,037
840,71	16,715
840,88	16,475
841,05	16,245
841,22	16,357
841,39	16,555
841,56	16,773
841,73	16,593
841,90	16,773
842,07	16,835
842,24	16,847
842,41	16,991
842,59	16,976
842,76	17,034
842,93	17,085
843,10	17,436
843,27	17,358
843,44	17,511
843,61	17,710
843,78	17,428
843,95	17,743
844,12	18,015
844,29	17,907
844,46	18,106
844,63	18,111
844,80	17,822
844,97	17,321
845,14	17,267
845,31	17,078
845,48	17,187
845,65	17,351
845,83	16,959
846,00	16,505
846,17	16,541
846,34	16,288
846,51	16,169
846,68	16,292
846,85	16,275
847,02	15,950
847,19	15,711
847,36	15,379
847,53	14,997
847,70	15,136
847,87	15,178
848,04	15,097
848,21	15,324
848,38	15,266
848,55	15,616
848,72	15,725
848,89	15,598
849,06	15,485
849,23	15,791
849,40	15,909
849,57	15,952
849,74	15,873
849,91	15,743
850,08	15,522
850,25	15,752
850,42	15,137
850,59	14,852
850,76	15,140
850,93	15,360
851,10	15,221
851,27	15,207
851,44	14,850
851,61	14,788
851,78	14,676
851,94	14,746
852,11	14,414
852,28	14,647
852,45	14,836
852,62	15,018
852,79	14,951
852,96	14,832
853,13	14,817
853,30	14,828
853,47	14,945
853,64	15,488
853,81	15,489
853,98	16,167
854,15	16,542
854,32	16,759
854,49	16,725
854,66	16,987
854,83	16,742
855,00	16,474
855,16	16,386
855,33	16,072
855,50	15,366
855,67	15,256
855,84	15,101
856,01	14,898
856,18	14,777
856,35	14,218
856,52	13,399
856,69	13,465
856,86	13,728
857,03	13,765
857,19	13,810
857,36	13,626
857,53	13,658
857,70	12,923
857,87	12,357
858,04	11,853
858,21	12,355
858,38	12,599
858,55	12,770
858,71	12,913
858,88	12,974
859,05	12,746
859,22	13,068
859,39	12,966
859,56	13,037
859,73	13,242
859,90	13,209
860,06	13,044
860,23	13,311
860,40	13,341
860,57	13,472
860,74	13,413
860,91	13,819
861,08	13,679
861,25	13,743
861,41	13,822
861,58	13,948
861,75	14,127
861,92	14,461
862,09	14,523
862,26	14,148
862,42	13,679
862,59	14,133
862,76	14,396
862,93	14,373
863,10	14,440
863,27	14,597
863,44	14,287
863,60	14,480
863,77	14,073
863,94	13,850
864,11	14,224
864,28	14,669
864,44	14,132
864,61	13,323
864,78	13,566
864,95	13,582
865,12	13,445
865,29	13,678
865,45	13,341
865,62	13,198
865,79	13,359
865,96	12,863
866,13	12,712
866,29	12,369
866,46	12,872
866,63	12,552
866,80	12,294
866,97	12,723
867,13	12,988
867,30	12,949
867,47	12,612
867,64	12,197
867,80	12,239
867,97	11,793
868,14	11,815
868,31	11,248
868,48	11,342
868,64	11,372
868,81	10,722
868,98	10,504
869,15	10,340
869,31	10,203
869,48	10,565
869,65	10,607
869,82	10,370
869,98	10,352
870,15	10,163
870,32	9,833
870,49	9,795
870,65	9,865
870,82	9,520
870,99	9,737
871,16	10,279
871,32	10,143
871,49	10,185
871,66	10,146
871,83	10,730
871,99	11,136
872,16	11,474
872,33	11,223
872,50	11,405
872,66	11,615
872,83	11,521
873,00	11,539
873,16	11,913
873,33	12,492
873,50	12,658
873,67	12,158
873,83	12,497
874,00	12,194
874,17	12,227
874,33	11,895
874,50	11,882
874,67	12,010
874,84	11,896
875,00	11,265
875,17	11,020
875,34	10,830
875,50	10,560
875,67	10,125
875,84	10,121
876,00	10,138
876,17	10,352
876,34	10,290
876,50	10,057
876,67	10,443
876,84	10,330
877,00	9,365
877,17	9,654
877,34	9,654
877,50	9,762
877,67	9,750
877,84	9,863
878,00	9,465
878,17	9,067
878,34	9,097
878,50	8,140
878,67	8,113
878,84	8,067
879,00	7,835
879,17	8,228
879,34	8,478
879,50	8,923
879,67	8,817
879,84	9,324
880,00	9,092
880,17	9,568
880,33	9,564
880,50	9,765
880,67	9,877
880,83	10,583
881,00	10,650
881,17	10,153
881,33	9,570
881,50	9,519
881,66	8,768
881,83	9,338
882,00	9,052
882,16	9,622
882,33	9,092
882,50	9,217
882,66	8,371
882,83	8,453
882,99	8,391
883,16	8,391
883,33	8,640
883,49	8,747
883,66	8,350
883,82	7,882
883,99	7,974
884,15	8,127
884,32	8,315
884,49	8,124
884,65	7,650
884,82	8,230
884,98	8,740
885,15	8,560
885,32	9,717
885,48	10,179
885,65	10,476
885,81	10,582
885,98	10,279
886,14	10,400
886,31	10,440
886,47	10,626
886,64	10,212
886,81	10,425
886,97	10,509
887,14	9,186
887,30	9,143
887,47	8,635
887,63	7,787
887,80	8,158
887,96	8,542
888,13	8,427
888,30	8,346
888,46	8,511
888,63	7,998
888,79	7,800
888,96	5,426
889,12	7,221
889,29	9,879
889,45	8,481
889,62	8,072
>>>>>End Processed Spectral Data<<<<<
